Vg	Ids
-2.998041999999999874e+01	2.431715000000000014e-08
-2.899943999999999988e+01	1.456510000000000050e-08
-2.800034000000000134e+01	1.218333999999999983e-08
-2.699975999999999843e+01	1.116933999999999981e-08
-2.600084000000000017e+01	1.037948000000000064e-08
-2.500044000000000111e+01	9.665135999999999534e-09
-2.400087999999999866e+01	8.916334000000000821e-09
-2.300024000000000157e+01	8.126835999999999583e-09
-2.199962999999999980e+01	7.434001000000000083e-09
-2.100015000000000143e+01	6.718392999999999715e-09
-1.999974999999999881e+01	6.025958000000000337e-09
-1.900093000000000032e+01	5.411469000000000227e-09
-1.800056000000000012e+01	4.808665000000000165e-09
-1.700103000000000009e+01	4.277730000000000282e-09
-1.600028999999999968e+01	3.800690000000000035e-09
-1.500065999999999988e+01	3.377751000000000158e-09
-1.400018999999999991e+01	2.979410000000000158e-09
-1.300090999999999930e+01	2.598730000000000186e-09
-1.200097000000000058e+01	2.274277000000000004e-09
-1.100158000000000058e+01	1.977354999999999941e-09
-1.000079000000000029e+01	1.707913999999999982e-09
-9.001096000000000430e+00	1.478452999999999920e-09
-8.000692000000000803e+00	1.292160999999999918e-09
-7.000083000000000055e+00	1.128846000000000053e-09
-6.001096999999999682e+00	9.852686000000000195e-10
-5.000479000000000340e+00	8.553055999999999586e-10
-4.001161999999999885e+00	7.340969999999999518e-10
-3.000466999999999995e+00	7.966496000000000114e-10
-2.000754999999999839e+00	5.241712999999999599e-10
-1.000089999999999923e+00	4.499786999999999797e-10
9.920000000000000432e-04	3.678404999999999976e-10
9.988249999999999629e-01	2.986075999999999750e-10
1.999128999999999934e+00	2.358519999999999834e-10
2.998540000000000205e+00	1.766346000000000075e-10
3.998826999999999909e+00	1.885792999999999932e-10
4.998024000000000022e+00	1.494551999999999886e-10
5.998873999999999818e+00	-6.129680000000000191e-12
6.998122999999999649e+00	7.535833000000000733e-12
7.998933000000000071e+00	-2.222466999999999965e-11
8.999288999999999206e+00	-2.455279999999999934e-11
9.998233000000000814e+00	-7.030725999999999581e-11
1.099886000000000053e+01	-1.119617000000000059e-10
1.199815000000000076e+01	-1.592345999999999952e-10
1.299854000000000021e+01	-1.550336999999999968e-10
1.399810000000000088e+01	-1.711794000000000127e-10
1.499878999999999962e+01	-1.854522999999999997e-10
1.599826000000000015e+01	-2.096960000000000015e-10
1.699836000000000169e+01	-2.236146999999999899e-10
1.799789000000000172e+01	-2.416836999999999768e-10
1.899777999999999878e+01	-2.727093999999999971e-10
1.999736000000000047e+01	-2.875393000000000061e-10
2.099783000000000044e+01	-3.005969000000000210e-10
2.199755000000000038e+01	-3.234236999999999964e-10
2.299812000000000012e+01	-3.209435000000000095e-10
2.399822999999999951e+01	-3.948386000000000224e-10
2.499755000000000038e+01	-3.605737999999999983e-10
2.599794999999999945e+01	-3.724681000000000220e-10
2.699750999999999834e+01	-3.893727999999999833e-10
2.799759999999999849e+01	-4.030892000000000043e-10
2.899753000000000114e+01	-4.170070999999999961e-10
2.997781000000000162e+01	-1.736392000000000056e-09
2.899982999999999933e+01	7.338366999999999522e-11
2.800052000000000163e+01	4.614162000000000242e-10
2.699982999999999933e+01	8.301525999999999732e-10
2.600086999999999904e+01	1.234112000000000008e-09
2.500017000000000067e+01	1.737973999999999979e-09
2.400082000000000093e+01	2.289561000000000010e-09
2.300016000000000105e+01	2.884671000000000036e-09
2.199992999999999910e+01	3.547544999999999871e-09
2.100001999999999924e+01	4.179144999999999634e-09
2.000024000000000157e+01	4.875318000000000266e-09
1.900028000000000006e+01	5.534198000000000373e-09
1.800018999999999991e+01	6.237256999999999899e-09
1.700056000000000012e+01	6.878519999999999941e-09
1.600017000000000067e+01	7.523176000000000450e-09
1.500076999999999927e+01	8.176236999999999339e-09
1.400020999999999916e+01	8.785057999999999216e-09
1.300081999999999915e+01	9.422120000000000133e-09
1.200054000000000087e+01	9.983071000000000257e-09
1.100115000000000087e+01	1.054093000000000074e-08
1.000047999999999959e+01	1.110222999999999962e-08
9.001253999999999422e+00	1.155790999999999943e-08
8.000757000000000119e+00	1.206406000000000063e-08
7.000135000000000218e+00	1.254504000000000035e-08
6.001101000000000241e+00	1.296878999999999943e-08
5.000066999999999595e+00	1.340808000000000071e-08
4.000802000000000191e+00	1.383501999999999924e-08
3.000402999999999931e+00	1.417802999999999927e-08
2.001059999999999839e+00	1.450612999999999941e-08
1.000210999999999961e+00	1.497806999999999934e-08
6.700000000000000226e-04	1.531319000000000055e-08
-9.982969999999999899e-01	1.565405999999999836e-08
-1.998960999999999988e+00	1.594048999999999982e-08
-2.998063999999999840e+00	1.621753999999999899e-08
-3.998887999999999998e+00	1.654121999999999967e-08
-4.998325000000000351e+00	1.679607999999999935e-08
-5.999100999999999573e+00	1.707210000000000105e-08
-6.998286000000000229e+00	1.733492000000000035e-08
-7.998842999999999925e+00	1.760067000000000060e-08
-8.999193999999999249e+00	1.784324000000000010e-08
-9.998386999999999247e+00	1.809410999999999843e-08
-1.099911999999999956e+01	1.823855000000000088e-08
-1.199854999999999983e+01	1.846335000000000035e-08
-1.299835999999999991e+01	1.868285000000000109e-08
-1.399756999999999962e+01	1.887793999999999944e-08
-1.499845000000000006e+01	1.903062000000000144e-08
-1.599779000000000018e+01	1.923134000000000113e-08
-1.699821000000000026e+01	1.939773999999999923e-08
-1.799745000000000061e+01	1.953933999999999965e-08
-1.899797999999999831e+01	1.971529000000000131e-08
-1.999743000000000137e+01	1.982209999999999920e-08
-2.099781000000000120e+01	1.998165000000000079e-08
-2.199737000000000009e+01	2.011977000000000031e-08
-2.299780000000000157e+01	2.026229999999999940e-08
-2.399819000000000102e+01	2.039129000000000021e-08
-2.499739999999999895e+01	2.049746999999999912e-08
-2.599803999999999959e+01	2.058552999999999891e-08
-2.699758999999999887e+01	2.072597000000000014e-08
-2.799804999999999922e+01	2.084673000000000128e-08
-2.899759999999999849e+01	2.096069999999999856e-08
