Vg	Ids
-2.997655999999999921e+01	7.626556000000000149e-09
-2.900083000000000055e+01	6.727116000000000202e-09
-2.800158000000000058e+01	6.420463000000000103e-09
-2.700127000000000166e+01	6.161593000000000149e-09
-2.600134999999999863e+01	5.803421999999999608e-09
-2.500120000000000076e+01	5.376020999999999710e-09
-2.400177000000000049e+01	4.739903000000000274e-09
-2.300133999999999901e+01	4.118864000000000016e-09
-2.200087999999999866e+01	3.356977999999999903e-09
-2.100122000000000000e+01	2.716556999999999845e-09
-2.000088999999999828e+01	2.176295000000000083e-09
-1.900149000000000044e+01	1.729559000000000066e-09
-1.800109000000000137e+01	1.341227000000000005e-09
-1.700134999999999863e+01	9.840214999999999401e-10
-1.600071000000000154e+01	8.117445000000000189e-10
-1.500122999999999962e+01	6.649249000000000269e-10
-1.400079000000000029e+01	5.735228999999999945e-10
-1.300134000000000079e+01	4.866253999999999851e-10
-1.200141999999999953e+01	4.038271999999999763e-10
-1.100192000000000014e+01	3.492190000000000014e-10
-1.000116000000000049e+01	2.726965000000000209e-10
-9.002008999999999261e+00	2.218316999999999972e-10
-8.001452000000000453e+00	1.770379999999999991e-10
-7.000929000000000180e+00	1.054184999999999964e-10
-6.001380000000000159e+00	6.067545000000000113e-11
-5.000320000000000320e+00	3.643115000000000194e-11
-4.001076000000000299e+00	9.504342000000000216e-12
-3.000519000000000158e+00	8.492650999999999736e-13
-2.001171999999999951e+00	-1.823225000000000120e-11
-1.000553999999999943e+00	-7.350204000000000615e-12
1.018000000000000025e-03	-3.625108999999999998e-11
9.988890000000000269e-01	-6.930228999999999954e-11
1.999554000000000054e+00	-4.556405000000000072e-11
2.998887999999999998e+00	-4.191980000000000319e-11
3.999321000000000126e+00	-4.672828999999999819e-11
4.998732999999999649e+00	-6.970710000000000375e-11
5.999272999999999634e+00	-8.625820000000000256e-11
6.998230000000000395e+00	-8.570131000000000533e-11
7.998821999999999655e+00	-8.413216999999999693e-11
8.999378999999999351e+00	-9.572282000000000591e-11
9.998863000000000056e+00	-1.049853000000000050e-10
1.099951000000000079e+01	-1.093884999999999966e-10
1.199888999999999939e+01	-1.168795999999999900e-10
1.299910999999999994e+01	-1.259901000000000021e-10
1.399845000000000006e+01	-1.336330000000000079e-10
1.499906999999999968e+01	-1.434519999999999974e-10
1.599816000000000038e+01	-1.495762999999999987e-10
1.699906000000000006e+01	-1.571686000000000046e-10
1.799833999999999889e+01	-1.623310000000000053e-10
1.899869999999999948e+01	-1.717960000000000083e-10
1.999813999999999936e+01	-1.817670000000000093e-10
2.099820000000000064e+01	-1.891564000000000118e-10
2.199794999999999945e+01	-1.362647000000000020e-10
2.299876000000000076e+01	-2.135527000000000095e-10
2.399934999999999974e+01	-2.193228999999999923e-10
2.499895000000000067e+01	-2.186140999999999968e-10
2.599931000000000125e+01	-2.283829000000000107e-10
2.699852999999999881e+01	-2.427570000000000231e-10
2.799889999999999901e+01	-2.470084000000000153e-10
2.899783000000000044e+01	-2.520191999999999769e-10
2.998114999999999952e+01	-5.266526000000000390e-10
2.900085999999999942e+01	-2.518169000000000096e-10
2.800148000000000081e+01	-2.325328000000000110e-10
2.700104999999999933e+01	-2.041383000000000063e-10
2.600178999999999974e+01	-1.916364000000000125e-10
2.500119000000000113e+01	-1.814630000000000123e-10
2.400167000000000073e+01	-1.766545999999999981e-10
2.300116999999999834e+01	-1.616221000000000038e-10
2.200082000000000093e+01	-1.575225000000000110e-10
2.100122999999999962e+01	-1.275080999999999963e-10
2.000103999999999971e+01	-1.334298999999999923e-10
1.900163999999999831e+01	-1.278624000000000009e-10
1.800100000000000122e+01	-1.074142000000000017e-10
1.700150999999999968e+01	-8.797832000000000230e-11
1.600111000000000061e+01	-3.660482999999999802e-11
1.500150000000000006e+01	5.971425000000000397e-11
1.400071999999999939e+01	3.022526999999999979e-10
1.300141999999999953e+01	5.709914999999999715e-10
1.200097000000000058e+01	1.004061000000000055e-09
1.100173000000000023e+01	1.413191999999999973e-09
1.000128999999999913e+01	1.829154000000000072e-09
9.001910999999999774e+00	2.225986999999999956e-09
8.001521000000000328e+00	2.660876999999999889e-09
7.000816999999999624e+00	2.946724999999999872e-09
6.001795999999999687e+00	3.251444000000000130e-09
5.000732000000000177e+00	3.556367999999999976e-09
4.001522999999999719e+00	3.825815000000000400e-09
3.000548999999999911e+00	3.936246000000000306e-09
2.001154000000000099e+00	4.180792999999999709e-09
1.000288000000000066e+00	4.396343000000000273e-09
8.760000000000000425e-04	4.608700999999999924e-09
-9.989360000000000461e-01	4.697977000000000226e-09
-1.999630999999999936e+00	4.862001000000000280e-09
-2.999054999999999804e+00	5.268246999999999747e-09
-3.999341999999999953e+00	5.420987000000000194e-09
-4.998586999999999669e+00	5.584048999999999646e-09
-5.999611999999999945e+00	5.725309000000000045e-09
-6.998414999999999608e+00	5.879662000000000163e-09
-7.999070999999999820e+00	6.062873000000000307e-09
-8.999121999999999844e+00	6.152203999999999944e-09
-9.998592999999999620e+00	6.341529000000000219e-09
-1.099912999999999919e+01	6.362332999999999602e-09
-1.199857000000000085e+01	6.489919000000000365e-09
-1.299900000000000055e+01	6.552674000000000320e-09
-1.399849000000000032e+01	6.700759000000000021e-09
-1.499916999999999945e+01	6.754456999999999726e-09
-1.599886000000000053e+01	6.855320000000000270e-09
-1.699916999999999945e+01	6.947429999999999862e-09
-1.799827000000000155e+01	6.934623999999999813e-09
-1.899905000000000044e+01	7.000417999999999886e-09
-1.999784000000000006e+01	7.046370999999999841e-09
-2.099820000000000064e+01	7.152955000000000142e-09
-2.199804999999999922e+01	7.250786999999999810e-09
-2.299857000000000085e+01	7.291827999999999813e-09
-2.399906000000000006e+01	7.300890000000000004e-09
-2.499862999999999857e+01	7.299214000000000102e-09
-2.599881999999999849e+01	7.313038000000000405e-09
-2.699840000000000018e+01	7.327201000000000411e-09
-2.799843999999999866e+01	7.328423000000000347e-09
-2.899787999999999855e+01	7.416933999999999981e-09
